# energy grid [eV]     epsr_x  epsr_y  epsr_z
#
    0.000000000    1.011850981    1.011759830    1.008115061
    0.015015015    1.011851076    1.011759925    1.008115080
    0.030030030    1.011851360    1.011760208    1.008115136
    0.045045045    1.011851834    1.011760681    1.008115229
    0.060060060    1.011852497    1.011761344    1.008115359
    0.075075075    1.011853350    1.011762195    1.008115526
    0.090090090    1.011854393    1.011763236    1.008115730
    0.105105105    1.011855626    1.011764466    1.008115972
    0.120120120    1.011857049    1.011765887    1.008116251
    0.135135135    1.011858661    1.011767496    1.008116567
    0.150150150    1.011860465    1.011769296    1.008116921
    0.165165165    1.011862458    1.011771286    1.008117311
    0.180180180    1.011864642    1.011773466    1.008117739
    0.195195195    1.011867017    1.011775837    1.008118204
    0.210210210    1.011869584    1.011778398    1.008118707
    0.225225225    1.011872341    1.011781151    1.008119246
    0.240240240    1.011875291    1.011784095    1.008119823
    0.255255255    1.011878432    1.011787231    1.008120438
    0.270270270    1.011881766    1.011790558    1.008121089
    0.285285285    1.011885292    1.011794078    1.008121778
    0.300300300    1.011889011    1.011797790    1.008122505
    0.315315315    1.011892924    1.011801696    1.008123269
    0.330330330    1.011897030    1.011805794    1.008124070
    0.345345345    1.011901331    1.011810087    1.008124909
    0.360360360    1.011905826    1.011814574    1.008125785
    0.375375375    1.011910516    1.011819256    1.008126699
    0.390390390    1.011915402    1.011824133    1.008127650
    0.405405405    1.011920484    1.011829206    1.008128639
    0.420420420    1.011925763    1.011834475    1.008129665
    0.435435435    1.011931239    1.011839940    1.008130730
    0.450450450    1.011936912    1.011845604    1.008131831
    0.465465465    1.011942784    1.011851465    1.008132971
    0.480480480    1.011948855    1.011857524    1.008134148
    0.495495495    1.011955125    1.011863783    1.008135363
    0.510510511    1.011961596    1.011870242    1.008136616
    0.525525526    1.011968267    1.011876901    1.008137907
    0.540540541    1.011975140    1.011883761    1.008139235
    0.555555556    1.011982215    1.011890824    1.008140602
    0.570570571    1.011989493    1.011898089    1.008142007
    0.585585586    1.011996975    1.011905557    1.008143449
    0.600600601    1.012004662    1.011913230    1.008144930
    0.615615616    1.012012554    1.011921108    1.008146449
    0.630630631    1.012020652    1.011929191    1.008148006
    0.645645646    1.012028957    1.011937481    1.008149601
    0.660660661    1.012037471    1.011945979    1.008151234
    0.675675676    1.012046193    1.011954686    1.008152906
    0.690690691    1.012055125    1.011963601    1.008154617
    0.705705706    1.012064267    1.011972728    1.008156365
    0.720720721    1.012073622    1.011982065    1.008158152
    0.735735736    1.012083189    1.011991615    1.008159978
    0.750750751    1.012092970    1.012001378    1.008161842
    0.765765766    1.012102965    1.012011356    1.008163745
    0.780780781    1.012113177    1.012021549    1.008165687
    0.795795796    1.012123605    1.012031959    1.008167668
    0.810810811    1.012134252    1.012042587    1.008169687
    0.825825826    1.012145118    1.012053434    1.008171745
    0.840840841    1.012156204    1.012064500    1.008173843
    0.855855856    1.012167512    1.012075789    1.008175979
    0.870870871    1.012179044    1.012087299    1.008178154
    0.885885886    1.012190799    1.012099034    1.008180369
    0.900900901    1.012202780    1.012110993    1.008182623
    0.915915916    1.012214987    1.012123179    1.008184916
    0.930930931    1.012227423    1.012135593    1.008187249
    0.945945946    1.012240088    1.012148236    1.008189621
    0.960960961    1.012252985    1.012161110    1.008192033
    0.975975976    1.012266114    1.012174216    1.008194485
    0.990990991    1.012279477    1.012187555    1.008196976
    1.006006006    1.012293075    1.012201130    1.008199507
    1.021021021    1.012306910    1.012214941    1.008202078
    1.036036036    1.012320984    1.012228990    1.008204689
    1.051051051    1.012335298    1.012243279    1.008207339
    1.066066066    1.012349854    1.012257810    1.008210031
    1.081081081    1.012364653    1.012272584    1.008212762
    1.096096096    1.012379697    1.012287602    1.008215534
    1.111111111    1.012394989    1.012302867    1.008218346
    1.126126126    1.012410529    1.012318381    1.008221198
    1.141141141    1.012426320    1.012334144    1.008224092
    1.156156156    1.012442363    1.012350160    1.008227026
    1.171171171    1.012458660    1.012366429    1.008230001
    1.186186186    1.012475214    1.012382955    1.008233016
    1.201201201    1.012492026    1.012399738    1.008236073
    1.216216216    1.012509098    1.012416781    1.008239171
    1.231231231    1.012526432    1.012434086    1.008242310
    1.246246246    1.012544031    1.012451655    1.008245490
    1.261261261    1.012561896    1.012469490    1.008248712
    1.276276276    1.012580030    1.012487593    1.008251975
    1.291291291    1.012598434    1.012505966    1.008255280
    1.306306306    1.012617112    1.012524613    1.008258627
    1.321321321    1.012636065    1.012543534    1.008262016
    1.336336336    1.012655296    1.012562733    1.008265447
    1.351351351    1.012674807    1.012582211    1.008268919
    1.366366366    1.012694600    1.012601972    1.008272434
    1.381381381    1.012714679    1.012622017    1.008275992
    1.396396396    1.012735045    1.012642350    1.008279591
    1.411411411    1.012755701    1.012662972    1.008283234
    1.426426426    1.012776650    1.012683886    1.008286919
    1.441441441    1.012797895    1.012705096    1.008290647
    1.456456456    1.012819438    1.012726604    1.008294418
    1.471471471    1.012841281    1.012748412    1.008298232
    1.486486486    1.012863429    1.012770523    1.008302089
    1.501501502    1.012885883    1.012792941    1.008305990
    1.516516517    1.012908647    1.012815668    1.008309934
    1.531531532    1.012931724    1.012838708    1.008313922
    1.546546547    1.012955116    1.012862062    1.008317953
    1.561561562    1.012978828    1.012885736    1.008322029
    1.576576577    1.013002861    1.012909730    1.008326148
    1.591591592    1.013027219    1.012934050    1.008330312
    1.606606607    1.013051907    1.012958698    1.008334520
    1.621621622    1.013076926    1.012983677    1.008338773
    1.636636637    1.013102280    1.013008992    1.008343070
    1.651651652    1.013127974    1.013034645    1.008347412
    1.666666667    1.013154010    1.013060640    1.008351799
    1.681681682    1.013180392    1.013086980    1.008356231
    1.696696697    1.013207124    1.013113671    1.008360709
    1.711711712    1.013234209    1.013140714    1.008365231
    1.726726727    1.013261652    1.013168114    1.008369800
    1.741741742    1.013289457    1.013195876    1.008374414
    1.756756757    1.013317626    1.013224002    1.008379074
    1.771771772    1.013346166    1.013252497    1.008383780
    1.786786787    1.013375079    1.013281366    1.008388533
    1.801801802    1.013404369    1.013310612    1.008393332
    1.816816817    1.013434042    1.013340240    1.008398177
    1.831831832    1.013464102    1.013370254    1.008403070
    1.846846847    1.013494553    1.013400659    1.008408009
    1.861861862    1.013525400    1.013431459    1.008412995
    1.876876877    1.013556647    1.013462659    1.008418029
    1.891891892    1.013588299    1.013494264    1.008423110
    1.906906907    1.013620361    1.013526279    1.008428239
    1.921921922    1.013652839    1.013558708    1.008433416
    1.936936937    1.013685736    1.013591557    1.008438641
    1.951951952    1.013719059    1.013624830    1.008443914
    1.966966967    1.013752813    1.013658534    1.008449236
    1.981981982    1.013787002    1.013692674    1.008454607
    1.996996997    1.013821633    1.013727254    1.008460026
    2.012012012    1.013856711    1.013762282    1.008465494
    2.027027027    1.013892242    1.013797761    1.008471012
    2.042042042    1.013928231    1.013833699    1.008476579
    2.057057057    1.013964686    1.013870101    1.008482196
    2.072072072    1.014001610    1.013906973    1.008487862
    2.087087087    1.014039012    1.013944321    1.008493579
    2.102102102    1.014076897    1.013982152    1.008499346
    2.117117117    1.014115272    1.014020473    1.008505164
    2.132132132    1.014154143    1.014059289    1.008511033
    2.147147147    1.014193517    1.014098608    1.008516952
    2.162162162    1.014233401    1.014138437    1.008522923
    2.177177177    1.014273802    1.014178782    1.008528946
    2.192192192    1.014314727    1.014219651    1.008535020
    2.207207207    1.014356183    1.014261050    1.008541146
    2.222222222    1.014398179    1.014302989    1.008547324
    2.237237237    1.014440721    1.014345473    1.008553555
    2.252252252    1.014483818    1.014388511    1.008559838
    2.267267267    1.014527478    1.014432112    1.008566174
    2.282282282    1.014571708    1.014476282    1.008572564
    2.297297297    1.014616517    1.014521032    1.008579006
    2.312312312    1.014661913    1.014566368    1.008585503
    2.327327327    1.014707906    1.014612300    1.008592053
    2.342342342    1.014754504    1.014658836    1.008598658
    2.357357357    1.014801716    1.014705986    1.008605317
    2.372372372    1.014849551    1.014753760    1.008612031
    2.387387387    1.014898020    1.014802165    1.008618800
    2.402402402    1.014947132    1.014851214    1.008625625
    2.417417417    1.014996896    1.014900914    1.008632505
    2.432432432    1.015047324    1.014951277    1.008639440
    2.447447447    1.015098424    1.015002313    1.008646432
    2.462462462    1.015150209    1.015054033    1.008653481
    2.477477477    1.015202689    1.015106446    1.008660586
    2.492492492    1.015255875    1.015159566    1.008667748
    2.507507508    1.015309779    1.015213402    1.008674967
    2.522522523    1.015364411    1.015267968    1.008682244
    2.537537538    1.015419786    1.015323274    1.008689579
    2.552552553    1.015475913    1.015379332    1.008696972
    2.567567568    1.015532807    1.015436157    1.008704424
    2.582582583    1.015590479    1.015493759    1.008711935
    2.597597598    1.015648944    1.015552154    1.008719505
    2.612612613    1.015708214    1.015611353    1.008727134
    2.627627628    1.015768303    1.015671371    1.008734823
    2.642642643    1.015829226    1.015732221    1.008742573
    2.657657658    1.015890996    1.015793920    1.008750382
    2.672672673    1.015953630    1.015856480    1.008758253
    2.687687688    1.016017142    1.015919918    1.008766185
    2.702702703    1.016081547    1.015984249    1.008774179
    2.717717718    1.016146862    1.016049489    1.008782234
    2.732732733    1.016213103    1.016115654    1.008790352
    2.747747748    1.016280287    1.016182762    1.008798532
    2.762762763    1.016348431    1.016250830    1.008806775
    2.777777778    1.016417553    1.016319874    1.008815082
    2.792792793    1.016487671    1.016389915    1.008823452
    2.807807808    1.016558804    1.016460969    1.008831887
    2.822822823    1.016630970    1.016533056    1.008840386
    2.837837838    1.016704190    1.016606197    1.008848950
    2.852852853    1.016778484    1.016680410    1.008857579
    2.867867868    1.016853872    1.016755717    1.008866274
    2.882882883    1.016930376    1.016832139    1.008875034
    2.897897898    1.017008017    1.016909698    1.008883862
    2.912912913    1.017086818    1.016988416    1.008892756
    2.927927928    1.017166802    1.017068317    1.008901718
    2.942942943    1.017247993    1.017149423    1.008910747
    2.957957958    1.017330415    1.017231760    1.008919844
    2.972972973    1.017414093    1.017315353    1.008929010
    2.987987988    1.017499053    1.017400226    1.008938245
    3.003003003    1.017585321    1.017486407    1.008947550
    3.018018018    1.017672925    1.017573924    1.008956924
    3.033033033    1.017761893    1.017662803    1.008966369
    3.048048048    1.017852253    1.017753074    1.008975885
    3.063063063    1.017944035    1.017844767    1.008985472
    3.078078078    1.018037270    1.017937911    1.008995130
    3.093093093    1.018131990    1.018032540    1.009004861
    3.108108108    1.018228226    1.018128684    1.009014665
    3.123123123    1.018326012    1.018226377    1.009024542
    3.138138138    1.018425383    1.018325655    1.009034493
    3.153153153    1.018526374    1.018426552    1.009044518
    3.168168168    1.018629022    1.018529105    1.009054617
    3.183183183    1.018733364    1.018633351    1.009064792
    3.198198198    1.018839439    1.018739330    1.009075043
    3.213213213    1.018947288    1.018847081    1.009085369
    3.228228228    1.019056951    1.018956646    1.009095773
    3.243243243    1.019168472    1.019068068    1.009106254
    3.258258258    1.019281895    1.019181391    1.009116813
    3.273273273    1.019397264    1.019296659    1.009127451
    3.288288288    1.019514628    1.019413922    1.009138167
    3.303303303    1.019634034    1.019533226    1.009148963
    3.318318318    1.019755533    1.019654622    1.009159840
    3.333333333    1.019879177    1.019778162    1.009170797
    3.348348348    1.020005020    1.019903899    1.009181835
    3.363363363    1.020133116    1.020031890    1.009192956
    3.378378378    1.020263524    1.020162191    1.009204159
    3.393393393    1.020396303    1.020294862    1.009215445
    3.408408408    1.020531513    1.020429964    1.009226815
    3.423423423    1.020669220    1.020567561    1.009238270
    3.438438438    1.020809488    1.020707718    1.009249810
    3.453453453    1.020952387    1.020850505    1.009261435
    3.468468468    1.021097986    1.020995992    1.009273147
    3.483483483    1.021246360    1.021144252    1.009284946
    3.498498498    1.021397584    1.021295361    1.009296832
    3.513513514    1.021551737    1.021449399    1.009308808
    3.528528529    1.021708901    1.021606447    1.009320872
    3.543543544    1.021869162    1.021766589    1.009333026
    3.558558559    1.022032607    1.021929916    1.009345271
    3.573573574    1.022199329    1.022096517    1.009357607
    3.588588589    1.022369422    1.022266489    1.009370035
    3.603603604    1.022542985    1.022439930    1.009382556
    3.618618619    1.022720122    1.022616943    1.009395171
    3.633633634    1.022900940    1.022797636    1.009407880
    3.648648649    1.023085550    1.022982121    1.009420684
    3.663663664    1.023274069    1.023170512    1.009433584
    3.678678679    1.023466617    1.023362932    1.009446580
    3.693693694    1.023663321    1.023559505    1.009459674
    3.708708709    1.023864311    1.023760365    1.009472867
    3.723723724    1.024069726    1.023965646    1.009486159
    3.738738739    1.024279707    1.024175494    1.009499551
    3.753753754    1.024494404    1.024390056    1.009513043
    3.768768769    1.024713974    1.024609488    1.009526638
    3.783783784    1.024938578    1.024833954    1.009540335
    3.798798799    1.025168387    1.025063623    1.009554136
    3.813813814    1.025403579    1.025298674    1.009568042
    3.828828829    1.025644340    1.025539292    1.009582053
    3.843843844    1.025890866    1.025785672    1.009596170
    3.858858859    1.026143359    1.026038020    1.009610395
    3.873873874    1.026402036    1.026296548    1.009624728
    3.888888889    1.026667119    1.026561481    1.009639171
    3.903903904    1.026938844    1.026833055    1.009653723
    3.918918919    1.027217459    1.027111516    1.009668388
    3.933933934    1.027503223    1.027397124    1.009683164
    3.948948949    1.027796409    1.027690152    1.009698055
    3.963963964    1.028097303    1.027990888    1.009713060
    3.978978979    1.028406209    1.028299631    1.009728180
    3.993993994    1.028723443    1.028616702    1.009743418
    4.009009009    1.029049342    1.028942434    1.009758773
    4.024024024    1.029384257    1.029277182    1.009774247
    4.039039039    1.029728563    1.029621317    1.009789842
    4.054054054    1.030082652    1.029975233    1.009805558
    4.069069069    1.030446942    1.030339347    1.009821397
    4.084084084    1.030821871    1.030714098    1.009837360
    4.099099099    1.031207906    1.031099951    1.009853448
    4.114114114    1.031605540    1.031497401    1.009869662
    4.129129129    1.032015295    1.031906970    1.009886004
    4.144144144    1.032437727    1.032329212    1.009902475
    4.159159159    1.032873424    1.032764716    1.009919077
    4.174174174    1.033323014    1.033214110    1.009935810
    4.189189189    1.033787162    1.033678058    1.009952676
    4.204204204    1.034266577    1.034157271    1.009969677
    4.219219219    1.034762018    1.034652504    1.009986815
    4.234234234    1.035274289    1.035164565    1.010004089
    4.249249249    1.035804254    1.035694315    1.010021503
    4.264264264    1.036352835    1.036242677    1.010039057
    4.279279279    1.036921018    1.036810637    1.010056753
    4.294294294    1.037509861    1.037399253    1.010074593
    4.309309309    1.038120500    1.038009660    1.010092579
    4.324324324    1.038754155    1.038643077    1.010110711
    4.339339339    1.039412137    1.039300816    1.010128992
    4.354354354    1.040095860    1.039984291    1.010147423
    4.369369369    1.040806849    1.040695026    1.010166007
    4.384384384    1.041546751    1.041434668    1.010184744
    4.399399399    1.042317348    1.042204999    1.010203637
    4.414414414    1.043120572    1.043007950    1.010222688
    4.429429429    1.043958517    1.043845614    1.010241898
    4.444444444    1.044833462    1.044720272    1.010261270
    4.459459459    1.045747887    1.045634401    1.010280805
    4.474474474    1.046704499    1.046590709    1.010300505
    4.489489489    1.047706256    1.047592153    1.010320373
    4.504504505    1.048756396    1.048641970    1.010340411
    4.519519520    1.049858474    1.049743716    1.010360620
    4.534534535    1.051016399    1.050901297    1.010381004
    4.549549550    1.052234478    1.052119021    1.010401564
    4.564564565    1.053517469    1.053401645    1.010422302
    4.579579580    1.054870642    1.054754438    1.010443222
    4.594594595    1.056299845    1.056183247    1.010464324
    4.609609610    1.057811590    1.057694583    1.010485613
    4.624624625    1.059413144    1.059295711    1.010507090
    4.639639640    1.061112643    1.060994767    1.010528758
    4.654654655    1.062919220    1.062800883    1.010550620
    4.669669670    1.064843168    1.064724350    1.010572678
    4.684684685    1.066896118    1.066776796    1.010594935
    4.699699700    1.069091262    1.068971414    1.010617394
    4.714714715    1.071443624    1.071323224    1.010640058
    4.729729730    1.073970371    1.073849392    1.010662931
    4.744744745    1.076691210    1.076569622    1.010686014
    4.759759760    1.079628853    1.079506623    1.010709312
    4.774774775    1.082809597    1.082686690    1.010732827
    4.789789790    1.086264032    1.086140410    1.010756564
    4.804804805    1.090027913    1.089903536    1.010780524
    4.819819820    1.094143247    1.094018068    1.010804713
    4.834834835    1.098659627    1.098533598    1.010829133
    4.849849850    1.103635911    1.103508978    1.010853788
    4.864864865    1.109142287    1.109014393    1.010878683
    4.879879880    1.115262831    1.115133912    1.010903821
    4.894894895    1.122098623    1.121968608    1.010929206
