# energy grid [eV]     ieps_x  ieps_y  ieps_z
#
    0.000000000    1.011839295    1.011746390    1.007692506
    0.015015015    1.011838767    1.011745863    1.007692403
    0.030030030    1.011837854    1.011744952    1.007692225
    0.045045045    1.011836749    1.011743849    1.007692010
    0.060060060    1.011835455    1.011742557    1.007691758
    0.075075075    1.011833972    1.011741077    1.007691470
    0.090090090    1.011832300    1.011739408    1.007691145
    0.105105105    1.011830439    1.011737551    1.007690784
    0.120120120    1.011828390    1.011735505    1.007690387
    0.135135135    1.011826152    1.011733272    1.007689953
    0.150150150    1.011823726    1.011730851    1.007689482
    0.165165165    1.011821113    1.011728242    1.007688975
    0.180180180    1.011818311    1.011725446    1.007688432
    0.195195195    1.011815322    1.011722462    1.007687853
    0.210210210    1.011812147    1.011719293    1.007687237
    0.225225225    1.011808784    1.011715936    1.007686584
    0.240240240    1.011805235    1.011712394    1.007685895
    0.255255255    1.011801500    1.011708666    1.007685170
    0.270270270    1.011797579    1.011704753    1.007684409
    0.285285285    1.011793474    1.011700655    1.007683611
    0.300300300    1.011789183    1.011696372    1.007682778
    0.315315315    1.011784708    1.011691905    1.007681908
    0.330330330    1.011780048    1.011687255    1.007681001
    0.345345345    1.011775206    1.011682421    1.007680059
    0.360360360    1.011770180    1.011677405    1.007679081
    0.375375375    1.011764971    1.011672207    1.007678066
    0.390390390    1.011759581    1.011666827    1.007677015
    0.405405405    1.011754009    1.011661265    1.007675929
    0.420420420    1.011748256    1.011655524    1.007674806
    0.435435435    1.011742323    1.011649602    1.007673647
    0.450450450    1.011736210    1.011643500    1.007672453
    0.465465465    1.011729918    1.011637220    1.007671222
    0.480480480    1.011723448    1.011630762    1.007669956
    0.495495495    1.011716799    1.011624126    1.007668654
    0.510510511    1.011709973    1.011617313    1.007667316
    0.525525526    1.011702970    1.011610324    1.007665943
    0.540540541    1.011695792    1.011603159    1.007664533
    0.555555556    1.011688438    1.011595820    1.007663088
    0.570570571    1.011680910    1.011588306    1.007661608
    0.585585586    1.011673208    1.011580619    1.007660092
    0.600600601    1.011665333    1.011572759    1.007658540
    0.615615616    1.011657286    1.011564727    1.007656953
    0.630630631    1.011649067    1.011556524    1.007655331
    0.645645646    1.011640678    1.011548151    1.007653673
    0.660660661    1.011632118    1.011539608    1.007651980
    0.675675676    1.011623390    1.011530896    1.007650252
    0.690690691    1.011614493    1.011522017    1.007648489
    0.705705706    1.011605429    1.011512970    1.007646690
    0.720720721    1.011596198    1.011503758    1.007644856
    0.735735736    1.011586801    1.011494379    1.007642988
    0.750750751    1.011577240    1.011484837    1.007641084
    0.765765766    1.011567515    1.011475131    1.007639145
    0.780780781    1.011557627    1.011465262    1.007637172
    0.795795796    1.011547577    1.011455231    1.007635164
    0.810810811    1.011537366    1.011445040    1.007633121
    0.825825826    1.011526994    1.011434689    1.007631043
    0.840840841    1.011516464    1.011424179    1.007628931
    0.855855856    1.011505775    1.011413512    1.007626785
    0.870870871    1.011494929    1.011402687    1.007624604
    0.885885886    1.011483927    1.011391706    1.007622388
    0.900900901    1.011472769    1.011380571    1.007620138
    0.915915916    1.011461457    1.011369282    1.007617854
    0.930930931    1.011449993    1.011357840    1.007615536
    0.945945946    1.011438376    1.011346246    1.007613183
    0.960960961    1.011426608    1.011334501    1.007610797
    0.975975976    1.011414689    1.011322607    1.007608377
    0.990990991    1.011402622    1.011310564    1.007605922
    1.006006006    1.011390408    1.011298373    1.007603434
    1.021021021    1.011378046    1.011286036    1.007600912
    1.036036036    1.011365539    1.011273554    1.007598357
    1.051051051    1.011352887    1.011260927    1.007595768
    1.066066066    1.011340091    1.011248158    1.007593145
    1.081081081    1.011327154    1.011235246    1.007590489
    1.096096096    1.011314075    1.011222194    1.007587800
    1.111111111    1.011300856    1.011209002    1.007585077
    1.126126126    1.011287498    1.011195671    1.007582321
    1.141141141    1.011274002    1.011182203    1.007579532
    1.156156156    1.011260370    1.011168598    1.007576710
    1.171171171    1.011246603    1.011154859    1.007573855
    1.186186186    1.011232701    1.011140986    1.007570967
    1.201201201    1.011218666    1.011126980    1.007568047
    1.216216216    1.011204500    1.011112842    1.007565093
    1.231231231    1.011190202    1.011098574    1.007562108
    1.246246246    1.011175776    1.011084177    1.007559089
    1.261261261    1.011161221    1.011069652    1.007556038
    1.276276276    1.011146539    1.011055001    1.007552955
    1.291291291    1.011131731    1.011040223    1.007549840
    1.306306306    1.011116799    1.011025322    1.007546693
    1.321321321    1.011101743    1.011010298    1.007543513
    1.336336336    1.011086565    1.010995152    1.007540302
    1.351351351    1.011071266    1.010979885    1.007537059
    1.366366366    1.011055848    1.010964499    1.007533784
    1.381381381    1.011040311    1.010948995    1.007530477
    1.396396396    1.011024658    1.010933374    1.007527139
    1.411411411    1.011008888    1.010917637    1.007523769
    1.426426426    1.010993003    1.010901786    1.007520368
    1.441441441    1.010977006    1.010885822    1.007516935
    1.456456456    1.010960896    1.010869747    1.007513472
    1.471471471    1.010944675    1.010853561    1.007509977
    1.486486486    1.010928345    1.010837265    1.007506452
    1.501501502    1.010911906    1.010820862    1.007502895
    1.516516517    1.010895361    1.010804351    1.007499308
    1.531531532    1.010878709    1.010787736    1.007495690
    1.546546547    1.010861953    1.010771016    1.007492042
    1.561561562    1.010845094    1.010754193    1.007488363
    1.576576577    1.010828133    1.010737269    1.007484654
    1.591591592    1.010811071    1.010720244    1.007480914
    1.606606607    1.010793910    1.010703120    1.007477145
    1.621621622    1.010776651    1.010685898    1.007473345
    1.636636637    1.010759295    1.010668580    1.007469515
    1.651651652    1.010741843    1.010651167    1.007465656
    1.666666667    1.010724297    1.010633659    1.007461767
    1.681681682    1.010706658    1.010616059    1.007457849
    1.696696697    1.010688927    1.010598368    1.007453900
    1.711711712    1.010671106    1.010580586    1.007449923
    1.726726727    1.010653196    1.010562715    1.007445916
    1.741741742    1.010635198    1.010544757    1.007441880
    1.756756757    1.010617113    1.010526712    1.007437815
    1.771771772    1.010598942    1.010508582    1.007433722
    1.786786787    1.010580688    1.010490369    1.007429599
    1.801801802    1.010562351    1.010472073    1.007425448
    1.816816817    1.010543932    1.010453696    1.007421268
    1.831831832    1.010525433    1.010435238    1.007417060
    1.846846847    1.010506854    1.010416702    1.007412823
    1.861861862    1.010488198    1.010398089    1.007408558
    1.876876877    1.010469466    1.010379399    1.007404265
    1.891891892    1.010450658    1.010360634    1.007399944
    1.906906907    1.010431776    1.010341795    1.007395595
    1.921921922    1.010412822    1.010322884    1.007391219
    1.936936937    1.010393795    1.010303902    1.007386814
    1.951951952    1.010374699    1.010284849    1.007382383
    1.966966967    1.010355533    1.010265728    1.007377923
    1.981981982    1.010336300    1.010246539    1.007373437
    1.996996997    1.010317000    1.010227284    1.007368923
    2.012012012    1.010297634    1.010207964    1.007364383
    2.027027027    1.010278204    1.010188580    1.007359815
    2.042042042    1.010258712    1.010169133    1.007355221
    2.057057057    1.010239157    1.010149625    1.007350600
    2.072072072    1.010219542    1.010130056    1.007345953
    2.087087087    1.010199868    1.010110428    1.007341279
    2.102102102    1.010180136    1.010090743    1.007336578
    2.117117117    1.010160346    1.010071001    1.007331852
    2.132132132    1.010140501    1.010051203    1.007327100
    2.147147147    1.010120601    1.010031351    1.007322321
    2.162162162    1.010100648    1.010011446    1.007317517
    2.177177177    1.010080642    1.009991488    1.007312687
    2.192192192    1.010060586    1.009971480    1.007307832
    2.207207207    1.010040479    1.009951423    1.007302951
    2.222222222    1.010020324    1.009931317    1.007298045
    2.237237237    1.010000121    1.009911163    1.007293114
    2.252252252    1.009979872    1.009890963    1.007288158
    2.267267267    1.009959577    1.009870718    1.007283177
    2.282282282    1.009939238    1.009850430    1.007278171
    2.297297297    1.009918856    1.009830098    1.007273140
    2.312312312    1.009898432    1.009809724    1.007268085
    2.327327327    1.009877967    1.009789310    1.007263006
    2.342342342    1.009857462    1.009768857    1.007257902
    2.357357357    1.009836918    1.009748365    1.007252774
    2.372372372    1.009816337    1.009727836    1.007247622
    2.387387387    1.009795720    1.009707270    1.007242447
    2.402402402    1.009775067    1.009686669    1.007237247
    2.417417417    1.009754380    1.009666034    1.007232024
    2.432432432    1.009733659    1.009645367    1.007226777
    2.447447447    1.009712906    1.009624667    1.007221507
    2.462462462    1.009692122    1.009603936    1.007216214
    2.477477477    1.009671308    1.009583175    1.007210898
    2.492492492    1.009650464    1.009562386    1.007205559
    2.507507508    1.009629593    1.009541568    1.007200197
    2.522522523    1.009608694    1.009520724    1.007194812
    2.537537538    1.009587770    1.009499854    1.007189405
    2.552552553    1.009566820    1.009478959    1.007183975
    2.567567568    1.009545846    1.009458040    1.007178523
    2.582582583    1.009524849    1.009437099    1.007173049
    2.597597598    1.009503830    1.009416135    1.007167553
    2.612612613    1.009482790    1.009395151    1.007162034
    2.627627628    1.009461730    1.009374147    1.007156495
    2.642642643    1.009440651    1.009353124    1.007150933
    2.657657658    1.009419553    1.009332082    1.007145350
    2.672672673    1.009398438    1.009311024    1.007139746
    2.687687688    1.009377307    1.009289950    1.007134120
    2.702702703    1.009356160    1.009268860    1.007128473
    2.717717718    1.009334999    1.009247757    1.007122805
    2.732732733    1.009313824    1.009226639    1.007117117
    2.747747748    1.009292637    1.009205510    1.007111408
    2.762762763    1.009271437    1.009184369    1.007105678
    2.777777778    1.009250227    1.009163217    1.007099927
    2.792792793    1.009229007    1.009142055    1.007094157
    2.807807808    1.009207777    1.009120885    1.007088366
    2.822822823    1.009186540    1.009099706    1.007082555
    2.837837838    1.009165294    1.009078520    1.007076725
    2.852852853    1.009144043    1.009057328    1.007070874
    2.867867868    1.009122785    1.009036130    1.007065004
    2.882882883    1.009101523    1.009014927    1.007059114
    2.897897898    1.009080256    1.008993721    1.007053205
    2.912912913    1.009058986    1.008972512    1.007047277
    2.927927928    1.009037714    1.008951300    1.007041330
    2.942942943    1.009016440    1.008930087    1.007035364
    2.957957958    1.008995165    1.008908873    1.007029378
    2.972972973    1.008973891    1.008887660    1.007023375
    2.987987988    1.008952616    1.008866447    1.007017352
    3.003003003    1.008931344    1.008845236    1.007011311
    3.018018018    1.008910073    1.008824027    1.007005252
    3.033033033    1.008888806    1.008802822    1.006999175
    3.048048048    1.008867542    1.008781621    1.006993080
    3.063063063    1.008846282    1.008760424    1.006986966
    3.078078078    1.008825028    1.008739232    1.006980836
    3.093093093    1.008803780    1.008718047    1.006974687
    3.108108108    1.008782538    1.008696868    1.006968521
    3.123123123    1.008761304    1.008675697    1.006962337
    3.138138138    1.008740077    1.008654535    1.006956137
    3.153153153    1.008718860    1.008633381    1.006949919
    3.168168168    1.008697652    1.008612237    1.006943684
    3.183183183    1.008676453    1.008591103    1.006937432
    3.198198198    1.008655266    1.008569980    1.006931164
    3.213213213    1.008634090    1.008548868    1.006924879
    3.228228228    1.008612926    1.008527769    1.006918578
    3.243243243    1.008591774    1.008506682    1.006912260
    3.258258258    1.008570636    1.008485610    1.006905926
    3.273273273    1.008549512    1.008464551    1.006899576
    3.288288288    1.008528402    1.008443507    1.006893211
    3.303303303    1.008507308    1.008422478    1.006886829
    3.318318318    1.008486229    1.008401465    1.006880432
    3.333333333    1.008465167    1.008380469    1.006874019
    3.348348348    1.008444122    1.008359490    1.006867591
    3.363363363    1.008423094    1.008338529    1.006861148
    3.378378378    1.008402084    1.008317586    1.006854689
    3.393393393    1.008381093    1.008296662    1.006848216
    3.408408408    1.008360121    1.008275757    1.006841727
    3.423423423    1.008339169    1.008254873    1.006835224
    3.438438438    1.008318237    1.008234008    1.006828707
    3.453453453    1.008297327    1.008213165    1.006822175
    3.468468468    1.008276437    1.008192344    1.006815628
    3.483483483    1.008255570    1.008171544    1.006809067
    3.498498498    1.008234725    1.008150767    1.006802493
    3.513513514    1.008213902    1.008130014    1.006795904
    3.528528529    1.008193104    1.008109283    1.006789301
    3.543543544    1.008172329    1.008088577    1.006782685
    3.558558559    1.008151579    1.008067896    1.006776055
    3.573573574    1.008130853    1.008047240    1.006769412
    3.588588589    1.008110153    1.008026609    1.006762755
    3.603603604    1.008089479    1.008006004    1.006756085
    3.618618619    1.008068831    1.007985426    1.006749402
    3.633633634    1.008048210    1.007964874    1.006742707
    3.648648649    1.008027616    1.007944350    1.006735998
    3.663663664    1.008007049    1.007923854    1.006729277
    3.678678679    1.007986511    1.007903386    1.006722543
    3.693693694    1.007966001    1.007882947    1.006715797
    3.708708709    1.007945521    1.007862537    1.006709038
    3.723723724    1.007925069    1.007842156    1.006702267
    3.738738739    1.007904647    1.007821805    1.006695484
    3.753753754    1.007884255    1.007801484    1.006688690
    3.768768769    1.007863894    1.007781194    1.006681883
    3.783783784    1.007843564    1.007760936    1.006675065
    3.798798799    1.007823265    1.007740708    1.006668235
    3.813813814    1.007802998    1.007720513    1.006661394
    3.828828829    1.007782762    1.007700349    1.006654541
    3.843843844    1.007762559    1.007680218    1.006647678
    3.858858859    1.007742389    1.007660120    1.006640803
    3.873873874    1.007722252    1.007640056    1.006633917
    3.888888889    1.007702149    1.007620025    1.006627020
    3.903903904    1.007682079    1.007600027    1.006620113
    3.918918919    1.007662043    1.007580064    1.006613195
    3.933933934    1.007642042    1.007560136    1.006606267
    3.948948949    1.007622075    1.007540243    1.006599328
    3.963963964    1.007602144    1.007520384    1.006592380
    3.978978979    1.007582248    1.007500562    1.006585421
    3.993993994    1.007562387    1.007480775    1.006578452
    4.009009009    1.007542563    1.007461024    1.006571473
    4.024024024    1.007522774    1.007441310    1.006564484
    4.039039039    1.007503023    1.007421632    1.006557486
    4.054054054    1.007483308    1.007401991    1.006550479
    4.069069069    1.007463630    1.007382388    1.006543462
    4.084084084    1.007443990    1.007362822    1.006536435
    4.099099099    1.007424387    1.007343294    1.006529400
    4.114114114    1.007404822    1.007323803    1.006522355
    4.129129129    1.007385296    1.007304352    1.006515302
    4.144144144    1.007365807    1.007284938    1.006508240
    4.159159159    1.007346358    1.007265564    1.006501169
    4.174174174    1.007326947    1.007246228    1.006494090
    4.189189189    1.007307576    1.007226932    1.006487002
    4.204204204    1.007288243    1.007207675    1.006479906
    4.219219219    1.007268951    1.007188458    1.006472801
    4.234234234    1.007249698    1.007169281    1.006465689
    4.249249249    1.007230485    1.007150144    1.006458568
    4.264264264    1.007211312    1.007131047    1.006451440
    4.279279279    1.007192180    1.007111991    1.006444303
    4.294294294    1.007173088    1.007092975    1.006437160
    4.309309309    1.007154037    1.007074000    1.006430008
    4.324324324    1.007135027    1.007055067    1.006422849
    4.339339339    1.007116058    1.007036175    1.006415683
    4.354354354    1.007097131    1.007017324    1.006408510
    4.369369369    1.007078245    1.006998515    1.006401329
    4.384384384    1.007059401    1.006979748    1.006394142
    4.399399399    1.007040599    1.006961023    1.006386947
    4.414414414    1.007021838    1.006942339    1.006379746
    4.429429429    1.007003120    1.006923699    1.006372539
    4.444444444    1.006984445    1.006905100    1.006365324
    4.459459459    1.006965812    1.006886545    1.006358103
    4.474474474    1.006947221    1.006868032    1.006350876
    4.489489489    1.006928673    1.006849562    1.006343643
    4.504504505    1.006910168    1.006831135    1.006336403
    4.519519520    1.006891707    1.006812751    1.006329158
    4.534534535    1.006873288    1.006794410    1.006321906
    4.549549550    1.006854913    1.006776113    1.006314649
    4.564564565    1.006836581    1.006757860    1.006307386
    4.579579580    1.006818293    1.006739650    1.006300118
    4.594594595    1.006800048    1.006721484    1.006292844
    4.609609610    1.006781848    1.006703362    1.006285564
    4.624624625    1.006763691    1.006685283    1.006278279
    4.639639640    1.006745578    1.006667249    1.006270990
    4.654654655    1.006727509    1.006649259    1.006263695
    4.669669670    1.006709484    1.006631314    1.006256395
    4.684684685    1.006691504    1.006613412    1.006249090
    4.699699700    1.006673568    1.006595556    1.006241780
    4.714714715    1.006655677    1.006577743    1.006234466
    4.729729730    1.006637830    1.006559976    1.006227147
    4.744744745    1.006620028    1.006542253    1.006219823
    4.759759760    1.006602270    1.006524575    1.006212496
    4.774774775    1.006584557    1.006506942    1.006205164
    4.789789790    1.006566889    1.006489353    1.006197827
    4.804804805    1.006549266    1.006471810    1.006190487
    4.819819820    1.006531688    1.006454312    1.006183143
    4.834834835    1.006514155    1.006436859    1.006175795
    4.849849850    1.006496667    1.006419451    1.006168443
    4.864864865    1.006479224    1.006402088    1.006161087
    4.879879880    1.006461827    1.006384771    1.006153728
    4.894894895    1.006444475    1.006367499    1.006146365
